#  depth     density    vp        vs      qkappa       qmu
#   2891.50    5.7721   13.6601    7.2817    723.12    273.97     0.000
   2891.50    9.9145    8.0000    0.0000  57822.00      0.00     0.000
   2939.33    9.9942    8.0382    0.0000  57822.00      0.00     0.000
   2989.66   10.0722    8.1283    0.0000  57822.00      0.00     0.000
   3039.99   10.1485    8.2213    0.0000  57822.00      0.00     0.000
   3090.32   10.2233    8.3122    0.0000  57822.00      0.00     0.000
   3140.66   10.2964    8.4001    0.0000  57822.00      0.00     0.000
   3190.99   10.3679    8.4861    0.0000  57822.00      0.00     0.000
   3241.32   10.4378    8.5692    0.0000  57822.00      0.00     0.000
   3291.65   10.5062    8.6496    0.0000  57822.00      0.00     0.000
   3341.98   10.5731    8.7283    0.0000  57822.00      0.00     0.000
   3392.31   10.6385    8.8036    0.0000  57822.00      0.00     0.000
   3442.64   10.7023    8.8761    0.0000  57822.00      0.00     0.000
   3492.97   10.7647    8.9461    0.0000  57822.00      0.00     0.000
   3543.30   10.8257    9.0138    0.0000  57822.00      0.00     0.000
   3593.64   10.8852    9.0792    0.0000  57822.00      0.00     0.000
   3643.97   10.9434    9.1426    0.0000  57822.00      0.00     0.000
   3694.30   11.0001    9.2042    0.0000  57822.00      0.00     0.000
   3744.63   11.0555    9.2634    0.0000  57822.00      0.00     0.000
   3794.96   11.1095    9.3205    0.0000  57822.00      0.00     0.000
   3845.29   11.1623    9.3760    0.0000  57822.00      0.00     0.000
   3895.62   11.2137    9.4297    0.0000  57822.00      0.00     0.000
   3945.95   11.2639    9.4814    0.0000  57822.00      0.00     0.000
   3996.28   11.3127    9.5306    0.0000  57822.00      0.00     0.000
   4046.62   11.3604    9.5777    0.0000  57822.00      0.00     0.000
   4096.95   11.4069    9.6232    0.0000  57822.00      0.00     0.000
   4147.28   11.4521    9.6673    0.0000  57822.00      0.00     0.000
   4197.61   11.4962    9.7100    0.0000  57822.00      0.00     0.000
   4247.94   11.5391    9.7513    0.0000  57822.00      0.00     0.000
   4298.27   11.5809    9.7914    0.0000  57822.00      0.00     0.000
   4348.60   11.6216    9.8304    0.0000  57822.00      0.00     0.000
   4398.93   11.6612    9.8682    0.0000  57822.00      0.00     0.000
   4449.26   11.6998    9.9051    0.0000  57822.00      0.00     0.000
   4499.60   11.7373    9.9410    0.0000  57822.00      0.00     0.000
   4549.93   11.7737    9.9761    0.0000  57822.00      0.00     0.000
   4600.26   11.8092   10.0103    0.0000  57822.00      0.00     0.000
   4650.59   11.8437   10.0439    0.0000  57822.00      0.00     0.000
   4700.92   11.8772   10.0768    0.0000  57822.00      0.00     0.000
   4751.25   11.9098   10.1095    0.0000  57822.00      0.00     0.000
   4801.58   11.9414   10.1415    0.0000  57822.00      0.00     0.000
   4851.91   11.9722   10.1739    0.0000  57822.00      0.00     0.000
   4902.24   12.0001   10.2049    0.0000  57822.00      0.00     0.000
   4952.58   12.0311   10.2329    0.0000  57822.00      0.00     0.000
   5002.91   12.0593   10.2565    0.0000  57822.00      0.00     0.000
   5053.24   12.0867   10.2745    0.0000  57822.00      0.00     0.000
   5103.57   12.1133   10.2854    0.0000  57822.00      0.00     0.000
   5153.50   12.1391   10.2890    0.0000  57822.00      0.00     0.000
